1:ItNr	2:Metric	3:StepSize	4:||Gradient||	Time[ms]
0	-0.996426	1.000000	0.000234	5.7
1	-0.996517	0.500000	0.000221	0.6
2	-0.996561	0.250000	0.000168	0.7
3	-0.996586	0.250000	0.000105	0.7
4	-0.996607	0.250000	0.000099	0.7
5	-0.996624	0.250000	0.000101	0.6
6	-0.996639	0.250000	0.000105	0.6
7	-0.996650	0.125000	0.000110	0.7
8	-0.996660	0.125000	0.000069	0.6
9	-0.996668	0.125000	0.000067	0.7
10	-0.996677	0.125000	0.000064	0.7
11	-0.996685	0.125000	0.000062	0.7
12	-0.996692	0.125000	0.000061	0.7
13	-0.996728	0.125000	0.000056	0.7
14	-0.996735	0.125000	0.000054	0.7
15	-0.996742	0.125000	0.000052	0.7
16	-0.996750	0.125000	0.000051	0.6
17	-0.996757	0.125000	0.000050	0.6
18	-0.996763	0.125000	0.000050	0.7
19	-0.996768	0.125000	0.000050	0.6
20	-0.996773	0.125000	0.000054	0.6
21	-0.996777	0.125000	0.000059	0.7
22	-0.996782	0.125000	0.000061	0.6
23	-0.996785	0.062500	0.000062	0.6
24	-0.996788	0.062500	0.000042	0.6
25	-0.996791	0.062500	0.000042	0.6
26	-0.996793	0.062500	0.000041	0.6
27	-0.996796	0.062500	0.000040	0.6
28	-0.996798	0.062500	0.000039	0.6
29	-0.996801	0.062500	0.000039	0.8
30	-0.996803	0.062500	0.000039	0.7
31	-0.996806	0.062500	0.000038	0.7
32	-0.996808	0.062500	0.000037	0.7
33	-0.996810	0.062500	0.000037	0.7
34	-0.996813	0.062500	0.000037	0.7
35	-0.996815	0.062500	0.000036	0.7
36	-0.996817	0.062500	0.000036	0.7
37	-0.996820	0.062500	0.000035	0.7
38	-0.996822	0.062500	0.000035	0.6
39	-0.996824	0.062500	0.000034	0.6
40	-0.996826	0.062500	0.000034	0.7
41	-0.996829	0.062500	0.000034	0.6
42	-0.996830	0.062500	0.000034	0.6
43	-0.996833	0.062500	0.000033	0.6
44	-0.996835	0.062500	0.000033	0.6
45	-0.996837	0.062500	0.000033	0.6
46	-0.996839	0.062500	0.000032	0.6
47	-0.996841	0.062500	0.000032	0.6
48	-0.996843	0.062500	0.000032	0.6
49	-0.996845	0.062500	0.000031	0.8
50	-0.996866	0.062500	0.000032	0.7
51	-0.996868	0.062500	0.000032	0.7
52	-0.996870	0.062500	0.000031	0.7
53	-0.996872	0.062500	0.000032	0.7
54	-0.996874	0.062500	0.000031	0.7
55	-0.996876	0.062500	0.000031	0.7
56	-0.996878	0.062500	0.000030	0.6
57	-0.996880	0.062500	0.000030	0.6
58	-0.996882	0.062500	0.000030	0.6
59	-0.996884	0.062500	0.000030	0.6
60	-0.996886	0.062500	0.000030	0.6
61	-0.996888	0.062500	0.000029	0.6
62	-0.996890	0.062500	0.000029	0.7
63	-0.996891	0.062500	0.000029	0.6
64	-0.996893	0.062500	0.000029	0.6
65	-0.996895	0.062500	0.000029	0.6
66	-0.996897	0.062500	0.000029	0.6
67	-0.996898	0.062500	0.000030	0.7
68	-0.996923	0.062500	0.000030	0.7
69	-0.996956	0.062500	0.000031	0.7
70	-0.996958	0.062500	0.000030	0.7
71	-0.996960	0.062500	0.000030	0.7
72	-0.996961	0.062500	0.000030	0.7
73	-0.996963	0.062500	0.000031	0.7
74	-0.996964	0.062500	0.000031	0.7
75	-0.996966	0.062500	0.000031	0.7
76	-0.996967	0.062500	0.000031	0.6
77	-0.996969	0.062500	0.000032	0.6
78	-0.996970	0.062500	0.000032	0.6
79	-0.996971	0.062500	0.000032	0.6
80	-0.996972	0.062500	0.000032	0.6
81	-0.996974	0.062500	0.000032	0.6
82	-0.996975	0.062500	0.000032	0.7
83	-0.996977	0.062500	0.000032	0.6
84	-0.996977	0.062500	0.000032	0.6
85	-0.996979	0.062500	0.000032	0.6
86	-0.996980	0.062500	0.000032	0.6
87	-0.996981	0.062500	0.000032	0.7
88	-0.996982	0.062500	0.000032	0.7
89	-0.996983	0.062500	0.000032	0.7
90	-0.996984	0.062500	0.000032	0.7
91	-0.996986	0.062500	0.000032	0.7
92	-0.996987	0.062500	0.000032	0.7
93	-0.996988	0.062500	0.000032	0.7
94	-0.996988	0.062500	0.000033	0.6
95	-0.996990	0.062500	0.000032	0.7
96	-0.996991	0.062500	0.000032	0.6
97	-0.996992	0.062500	0.000032	0.7
98	-0.996993	0.062500	0.000033	0.6
99	-0.996994	0.031250	0.000033	0.6
100	-0.996994	0.031250	0.000023	0.6
101	-0.996995	0.031250	0.000023	0.6
102	-0.996996	0.031250	0.000023	0.6
103	-0.996997	0.031250	0.000023	0.6
104	-0.996997	0.031250	0.000022	0.6
105	-0.996998	0.031250	0.000022	0.6
106	-0.996999	0.031250	0.000022	0.6
107	-0.996999	0.031250	0.000022	0.6
108	-0.997000	0.031250	0.000022	0.7
109	-0.997001	0.031250	0.000022	0.8
110	-0.997001	0.031250	0.000022	0.7
111	-0.997002	0.031250	0.000022	0.7
112	-0.997003	0.031250	0.000022	0.7
113	-0.997003	0.031250	0.000022	0.7
114	-0.997004	0.031250	0.000021	0.6
115	-0.997005	0.031250	0.000021	0.6
116	-0.997005	0.031250	0.000021	0.6
117	-0.997006	0.031250	0.000021	0.6
118	-0.997007	0.031250	0.000021	0.6
119	-0.997007	0.031250	0.000021	0.6
120	-0.997008	0.031250	0.000021	0.6
121	-0.997009	0.031250	0.000021	0.6
122	-0.997010	0.031250	0.000021	0.6
123	-0.997010	0.031250	0.000021	0.7
124	-0.997011	0.031250	0.000021	0.6
125	-0.997012	0.031250	0.000021	0.6
126	-0.997012	0.031250	0.000021	0.6
127	-0.997013	0.031250	0.000021	0.6
128	-0.997014	0.031250	0.000021	0.7
129	-0.997014	0.031250	0.000021	0.7
130	-0.997015	0.031250	0.000021	0.7
131	-0.997015	0.031250	0.000021	0.7
132	-0.997016	0.031250	0.000021	0.7
133	-0.997017	0.031250	0.000021	0.6
134	-0.997018	0.031250	0.000021	0.6
135	-0.997018	0.031250	0.000021	0.7
136	-0.997019	0.031250	0.000021	0.6
137	-0.997020	0.031250	0.000021	0.6
138	-0.997021	0.031250	0.000021	0.6
139	-0.997021	0.031250	0.000021	0.6
140	-0.997022	0.031250	0.000020	0.6
141	-0.997023	0.031250	0.000020	0.6
142	-0.997024	0.031250	0.000020	0.7
143	-0.997025	0.031250	0.000020	0.6
144	-0.997025	0.031250	0.000020	0.6
145	-0.997026	0.031250	0.000020	0.6
146	-0.997027	0.031250	0.000020	0.6
147	-0.997027	0.031250	0.000021	0.6
148	-0.997028	0.031250	0.000021	0.8
149	-0.997029	0.031250	0.000020	0.7
150	-0.997029	0.031250	0.000020	0.6
151	-0.997030	0.031250	0.000020	0.6
152	-0.997031	0.031250	0.000020	0.6
153	-0.997031	0.031250	0.000020	0.6
154	-0.997032	0.031250	0.000020	0.6
155	-0.997033	0.031250	0.000020	0.6
156	-0.997033	0.031250	0.000020	0.6
157	-0.997034	0.031250	0.000020	0.6
158	-0.997035	0.031250	0.000020	0.6
159	-0.997035	0.031250	0.000020	0.7
160	-0.997036	0.031250	0.000020	0.6
161	-0.997036	0.031250	0.000020	0.6
162	-0.997037	0.031250	0.000020	0.6
163	-0.997038	0.031250	0.000020	0.6
164	-0.997038	0.031250	0.000020	0.6
165	-0.997039	0.031250	0.000020	0.6
166	-0.997040	0.031250	0.000019	0.6
167	-0.997040	0.031250	0.000018	0.6
168	-0.997041	0.031250	0.000018	0.7
169	-0.997042	0.031250	0.000018	0.7
170	-0.997042	0.031250	0.000018	0.6
171	-0.997043	0.031250	0.000018	0.6
172	-0.997043	0.031250	0.000018	0.7
173	-0.997044	0.031250	0.000018	0.6
174	-0.997044	0.031250	0.000018	0.6
175	-0.997045	0.031250	0.000018	0.6
176	-0.997046	0.031250	0.000018	0.6
177	-0.997046	0.031250	0.000018	0.7
178	-0.997047	0.031250	0.000018	0.7
179	-0.997047	0.031250	0.000018	0.7
180	-0.997048	0.031250	0.000018	0.7
181	-0.997048	0.031250	0.000018	0.7
182	-0.997049	0.031250	0.000018	0.7
183	-0.997049	0.031250	0.000018	0.7
184	-0.997050	0.031250	0.000018	0.7
185	-0.997051	0.031250	0.000018	0.7
186	-0.997051	0.031250	0.000018	0.7
187	-0.997052	0.031250	0.000018	0.7
188	-0.997052	0.031250	0.000018	0.8
189	-0.997053	0.031250	0.000018	0.8
190	-0.997053	0.031250	0.000018	0.7
191	-0.997054	0.031250	0.000018	0.7
192	-0.997055	0.031250	0.000018	0.7
193	-0.997055	0.031250	0.000018	0.7
194	-0.997056	0.031250	0.000018	0.7
195	-0.997056	0.031250	0.000018	0.7
196	-0.997057	0.031250	0.000018	0.7
197	-0.997057	0.031250	0.000018	0.7
198	-0.997058	0.031250	0.000018	0.8
199	-0.997061	0.031250	0.000017	0.7
200	-0.997062	0.031250	0.000017	0.7
201	-0.997062	0.031250	0.000017	0.7
202	-0.997063	0.031250	0.000017	0.7
203	-0.997063	0.031250	0.000017	0.7
204	-0.997064	0.031250	0.000017	0.7
205	-0.997064	0.031250	0.000017	0.7
206	-0.997065	0.031250	0.000017	0.8
207	-0.997065	0.031250	0.000017	0.7
208	-0.997066	0.031250	0.000017	0.7
209	-0.997066	0.031250	0.000017	0.7
210	-0.997067	0.031250	0.000017	0.7
211	-0.997067	0.031250	0.000017	0.7
212	-0.997068	0.031250	0.000017	0.7
213	-0.997068	0.031250	0.000017	0.7
214	-0.997069	0.031250	0.000017	0.7
215	-0.997081	0.031250	0.000019	0.7
216	-0.997082	0.031250	0.000019	0.7
217	-0.997082	0.031250	0.000018	0.7
218	-0.997083	0.031250	0.000019	0.7
219	-0.997084	0.031250	0.000019	0.7
220	-0.997084	0.031250	0.000018	0.7
221	-0.997085	0.031250	0.000018	0.7
222	-0.997085	0.031250	0.000019	0.7
223	-0.997086	0.031250	0.000019	0.7
224	-0.997086	0.031250	0.000019	0.7
225	-0.997087	0.031250	0.000019	0.8
226	-0.997088	0.031250	0.000018	0.7
227	-0.997089	0.031250	0.000018	0.7
228	-0.997089	0.031250	0.000018	0.7
229	-0.997090	0.031250	0.000018	0.7
230	-0.997090	0.031250	0.000018	0.7
231	-0.997091	0.031250	0.000018	0.7
232	-0.997091	0.031250	0.000018	0.7
233	-0.997092	0.031250	0.000018	0.7
234	-0.997093	0.031250	0.000018	0.7
235	-0.997093	0.031250	0.000018	0.7
236	-0.997094	0.031250	0.000018	0.7
237	-0.997095	0.031250	0.000018	0.6
238	-0.997095	0.031250	0.000018	0.7
239	-0.997096	0.031250	0.000018	0.7
240	-0.997096	0.031250	0.000018	0.7
241	-0.997097	0.031250	0.000018	0.7
242	-0.997097	0.031250	0.000018	0.7
243	-0.997098	0.031250	0.000018	0.7
244	-0.997098	0.031250	0.000018	0.8
245	-0.997099	0.031250	0.000018	0.7
246	-0.997100	0.031250	0.000018	0.7
247	-0.997100	0.031250	0.000018	0.7
248	-0.997101	0.031250	0.000018	0.7
249	-0.997101	0.031250	0.000018	0.7
250	-0.997102	0.031250	0.000018	0.7
251	-0.997102	0.031250	0.000018	0.7
252	-0.997103	0.031250	0.000018	0.7
253	-0.997103	0.031250	0.000017	0.7
254	-0.997104	0.031250	0.000017	0.7
255	-0.997105	0.031250	0.000017	0.6
256	-0.997105	0.031250	0.000017	0.6
257	-0.997106	0.031250	0.000018	0.6
258	-0.997106	0.031250	0.000018	0.6
259	-0.997107	0.031250	0.000018	0.7
260	-0.997107	0.031250	0.000018	0.6
261	-0.997108	0.031250	0.000017	0.6
262	-0.997108	0.031250	0.000018	0.7
263	-0.997109	0.031250	0.000018	0.7
264	-0.997109	0.031250	0.000018	0.6
265	-0.997110	0.031250	0.000018	0.6
266	-0.997111	0.031250	0.000018	0.6
267	-0.997111	0.031250	0.000018	0.6
268	-0.997112	0.031250	0.000018	0.6
269	-0.997112	0.031250	0.000018	0.6
270	-0.997113	0.031250	0.000018	0.6
271	-0.997113	0.031250	0.000017	0.6
272	-0.997114	0.031250	0.000017	0.6
273	-0.997114	0.031250	0.000017	0.6
274	-0.997115	0.031250	0.000018	0.6
275	-0.997116	0.031250	0.000017	0.6
276	-0.997116	0.031250	0.000017	0.7
277	-0.997117	0.031250	0.000017	0.6
278	-0.997117	0.031250	0.000017	0.6
279	-0.997118	0.031250	0.000017	0.6
280	-0.997118	0.031250	0.000017	0.6
281	-0.997119	0.031250	0.000017	0.7
282	-0.997120	0.031250	0.000017	0.6
283	-0.997120	0.031250	0.000017	0.7
284	-0.997121	0.031250	0.000017	0.7
285	-0.997121	0.031250	0.000018	0.7
286	-0.997122	0.031250	0.000017	0.6
287	-0.997123	0.031250	0.000018	0.6
288	-0.997123	0.031250	0.000017	0.6
289	-0.997124	0.031250	0.000018	0.6
290	-0.997124	0.031250	0.000018	0.6
291	-0.997125	0.031250	0.000017	0.6
292	-0.997125	0.031250	0.000018	0.6
293	-0.997126	0.031250	0.000018	0.6
294	-0.997126	0.031250	0.000018	0.6
295	-0.997127	0.031250	0.000018	0.6
296	-0.997127	0.031250	0.000018	0.6
297	-0.997128	0.031250	0.000018	0.6
298	-0.997129	0.031250	0.000018	0.6
299	-0.997129	0.031250	0.000018	0.6
300	-0.997130	0.031250	0.000018	0.6
301	-0.997130	0.031250	0.000018	0.6
302	-0.997131	0.031250	0.000018	0.7
303	-0.997131	0.031250	0.000018	0.6
304	-0.997132	0.031250	0.000018	0.7
305	-0.997133	0.031250	0.000018	0.7
306	-0.997133	0.031250	0.000018	0.6
307	-0.997134	0.031250	0.000018	0.6
308	-0.997134	0.031250	0.000018	0.6
309	-0.997135	0.031250	0.000018	0.6
310	-0.997135	0.031250	0.000018	0.7
311	-0.997136	0.031250	0.000018	0.6
312	-0.997137	0.031250	0.000018	0.6
313	-0.997137	0.031250	0.000018	0.7
314	-0.997138	0.031250	0.000018	0.6
315	-0.997138	0.031250	0.000018	0.6
316	-0.997139	0.031250	0.000018	0.6
317	-0.997165	0.031250	0.000018	0.6
318	-0.997166	0.031250	0.000018	0.6
319	-0.997166	0.031250	0.000018	0.6
320	-0.997167	0.031250	0.000018	0.6
321	-0.997167	0.031250	0.000018	0.6
322	-0.997168	0.031250	0.000018	0.6
323	-0.997169	0.031250	0.000018	0.6
324	-0.997169	0.031250	0.000018	0.6
325	-0.997170	0.031250	0.000018	0.8
326	-0.997170	0.031250	0.000018	0.7
327	-0.997171	0.031250	0.000018	0.7
328	-0.997171	0.031250	0.000018	0.7
329	-0.997172	0.031250	0.000018	0.7
330	-0.997172	0.031250	0.000018	0.7
331	-0.997173	0.031250	0.000018	0.7
332	-0.997174	0.031250	0.000018	0.6
333	-0.997174	0.031250	0.000018	0.6
334	-0.997175	0.031250	0.000018	0.7
335	-0.997175	0.031250	0.000018	0.6
336	-0.997176	0.031250	0.000018	0.6
337	-0.997177	0.031250	0.000017	0.6
338	-0.997177	0.031250	0.000017	0.6
339	-0.997178	0.031250	0.000017	0.6
340	-0.997178	0.031250	0.000017	0.6
341	-0.997179	0.031250	0.000017	0.6
342	-0.997179	0.031250	0.000017	0.6
343	-0.997180	0.031250	0.000017	0.6
344	-0.997180	0.031250	0.000017	0.7
345	-0.997181	0.031250	0.000017	0.7
346	-0.997181	0.031250	0.000017	0.6
347	-0.997183	0.031250	0.000017	0.6
348	-0.997184	0.031250	0.000017	0.7
349	-0.997184	0.031250	0.000017	0.6
350	-0.997185	0.031250	0.000017	0.6
351	-0.997185	0.031250	0.000017	0.7
352	-0.997186	0.031250	0.000017	0.6
353	-0.997186	0.031250	0.000017	0.6
354	-0.997187	0.031250	0.000017	0.6
355	-0.997187	0.031250	0.000017	0.6
356	-0.997188	0.031250	0.000017	0.6
357	-0.997188	0.031250	0.000017	0.6
358	-0.997189	0.031250	0.000017	0.6
359	-0.997189	0.031250	0.000017	0.6
360	-0.997190	0.031250	0.000017	0.6
361	-0.997191	0.031250	0.000017	0.6
362	-0.997191	0.031250	0.000017	0.6
363	-0.997192	0.031250	0.000017	0.6
364	-0.997192	0.031250	0.000017	0.6
365	-0.997193	0.031250	0.000017	0.7
366	-0.997193	0.031250	0.000017	0.6
367	-0.997194	0.031250	0.000017	0.6
368	-0.997194	0.031250	0.000017	0.6
369	-0.997195	0.031250	0.000017	0.6
370	-0.997195	0.031250	0.000017	0.6
371	-0.997196	0.031250	0.000017	0.6
372	-0.997196	0.031250	0.000017	0.7
373	-0.997197	0.031250	0.000018	0.6
374	-0.997197	0.031250	0.000018	0.6
375	-0.997198	0.031250	0.000018	0.7
376	-0.997198	0.031250	0.000018	0.6
377	-0.997199	0.031250	0.000018	0.6
378	-0.997199	0.031250	0.000018	0.6
379	-0.997200	0.031250	0.000018	0.7
380	-0.997200	0.031250	0.000018	0.6
381	-0.997201	0.031250	0.000018	0.6
382	-0.997201	0.031250	0.000018	0.6
383	-0.997202	0.031250	0.000018	0.6
384	-0.997202	0.031250	0.000018	0.6
385	-0.997203	0.031250	0.000018	0.7
386	-0.997203	0.031250	0.000018	0.7
387	-0.997204	0.031250	0.000018	0.6
388	-0.997204	0.031250	0.000018	0.6
389	-0.997205	0.031250	0.000018	0.6
390	-0.997205	0.031250	0.000018	0.6
391	-0.997206	0.031250	0.000018	0.6
392	-0.997206	0.031250	0.000018	0.6
393	-0.997207	0.031250	0.000018	0.7
394	-0.997207	0.031250	0.000018	0.6
395	-0.997208	0.031250	0.000018	0.6
396	-0.997208	0.031250	0.000018	0.7
397	-0.997209	0.031250	0.000018	0.7
398	-0.997209	0.031250	0.000018	6.8
399	-0.997210	0.031250	0.000018	4.7
400	-0.997210	0.031250	0.000018	4.2
401	-0.997211	0.031250	0.000018	1.2
402	-0.997211	0.031250	0.000018	1.1
403	-0.997212	0.031250	0.000018	1.3
404	-0.997212	0.031250	0.000018	1.5
405	-0.997213	0.031250	0.000018	1.3
406	-0.997213	0.031250	0.000018	1.2
407	-0.997214	0.031250	0.000018	1.2
408	-0.997214	0.031250	0.000018	1.1
409	-0.997215	0.031250	0.000018	1.1
410	-0.997215	0.031250	0.000018	1.1
411	-0.997216	0.031250	0.000018	1.1
412	-0.997216	0.031250	0.000018	1.1
413	-0.997217	0.031250	0.000018	1.1
414	-0.997217	0.031250	0.000018	1.0
415	-0.997218	0.031250	0.000018	0.9
416	-0.997218	0.031250	0.000018	0.9
417	-0.997219	0.031250	0.000018	0.7
418	-0.997219	0.031250	0.000018	0.8
419	-0.997220	0.031250	0.000018	0.7
420	-0.997220	0.031250	0.000018	0.7
421	-0.997221	0.031250	0.000018	0.7
422	-0.997221	0.031250	0.000018	0.7
423	-0.997221	0.031250	0.000018	0.7
424	-0.997222	0.031250	0.000018	0.7
425	-0.997222	0.031250	0.000018	0.7
426	-0.997223	0.031250	0.000018	0.7
427	-0.997223	0.031250	0.000018	0.7
428	-0.997224	0.031250	0.000018	0.8
429	-0.997224	0.031250	0.000018	0.8
430	-0.997225	0.031250	0.000018	0.9
431	-0.997225	0.031250	0.000018	0.8
432	-0.997226	0.031250	0.000018	0.9
433	-0.997226	0.031250	0.000018	0.9
434	-0.997227	0.031250	0.000018	1.1
435	-0.997227	0.031250	0.000018	0.9
436	-0.997228	0.031250	0.000018	0.9
437	-0.997228	0.031250	0.000018	0.9
438	-0.997229	0.031250	0.000018	0.9
439	-0.997229	0.031250	0.000018	0.8
440	-0.997230	0.031250	0.000018	0.8
441	-0.997230	0.031250	0.000018	0.7
442	-0.997231	0.031250	0.000018	0.7
443	-0.997231	0.031250	0.000018	0.7
444	-0.997232	0.031250	0.000017	0.7
445	-0.997232	0.031250	0.000017	0.7
446	-0.997233	0.031250	0.000017	0.7
447	-0.997233	0.031250	0.000017	0.7
448	-0.997234	0.031250	0.000018	0.7
449	-0.997234	0.031250	0.000017	0.8
450	-0.997235	0.031250	0.000017	0.7
451	-0.997235	0.031250	0.000017	0.7
452	-0.997236	0.031250	0.000017	0.7
453	-0.997236	0.031250	0.000017	0.7
454	-0.997236	0.031250	0.000017	0.7
455	-0.997237	0.031250	0.000017	0.7
456	-0.997237	0.031250	0.000017	0.7
457	-0.997238	0.031250	0.000017	0.8
458	-0.997238	0.031250	0.000017	0.8
459	-0.997239	0.031250	0.000017	0.8
460	-0.997239	0.031250	0.000017	0.8
461	-0.997240	0.031250	0.000017	0.8
462	-0.997240	0.031250	0.000017	0.8
463	-0.997241	0.031250	0.000017	0.8
464	-0.997241	0.031250	0.000017	0.8
465	-0.997242	0.031250	0.000017	0.9
466	-0.997242	0.031250	0.000017	0.9
467	-0.997243	0.031250	0.000017	1.0
468	-0.997243	0.031250	0.000017	0.8
469	-0.997244	0.031250	0.000017	0.8
470	-0.997244	0.031250	0.000017	0.8
471	-0.997245	0.031250	0.000017	0.8
472	-0.997245	0.031250	0.000017	0.8
473	-0.997246	0.031250	0.000017	0.8
474	-0.997246	0.031250	0.000017	0.7
475	-0.997247	0.031250	0.000017	0.7
476	-0.997247	0.031250	0.000017	0.7
477	-0.997248	0.031250	0.000017	0.7
478	-0.997248	0.031250	0.000017	0.7
479	-0.997249	0.031250	0.000017	0.7
480	-0.997249	0.031250	0.000017	0.7
481	-0.997250	0.031250	0.000018	0.7
482	-0.997250	0.031250	0.000018	0.7
483	-0.997250	0.031250	0.000018	0.7
484	-0.997251	0.031250	0.000018	0.8
485	-0.997251	0.031250	0.000018	0.7
486	-0.997259	0.031250	0.000018	0.7
487	-0.997259	0.031250	0.000018	0.7
488	-0.997259	0.031250	0.000018	0.7
489	-0.997260	0.031250	0.000018	0.7
490	-0.997260	0.031250	0.000018	0.7
491	-0.997261	0.031250	0.000018	0.7
492	-0.997261	0.031250	0.000018	0.7
493	-0.997262	0.031250	0.000018	0.7
494	-0.997262	0.031250	0.000018	0.7
495	-0.997263	0.031250	0.000018	0.7
496	-0.997263	0.031250	0.000018	0.7
497	-0.997263	0.031250	0.000018	0.7
498	-0.997264	0.031250	0.000018	0.7
499	-0.997264	0.031250	0.000018	0.7
